 Be Density=1.848
 Energy(eV), Delta, Beta
  2600.  5.07905715E-05  2.31986178E-07
  2612.77441  5.02917828E-05  2.27370634E-07
  2625.61133  4.97979418E-05  2.2284695E-07
  2638.51147  4.93089792E-05  2.1841312E-07
  2651.4751  4.88248188E-05  2.14067526E-07
  2664.50244  4.83454351E-05  2.09809073E-07
  2677.59351  4.78708498E-05  2.05635772E-07
  2690.74927  4.7400903E-05  2.01545348E-07
  2703.96948  4.69355837E-05  1.97536394E-07
  2717.25464  4.64748591E-05  1.93607178E-07
  2730.60498  4.60186711E-05  1.89756122E-07
  2744.02124  4.55669433E-05  1.8598196E-07
  2757.50269  4.51197229E-05  1.82283273E-07
  2771.05103  4.467689E-05  1.78658155E-07
  2784.66602  4.42384044E-05  1.75105228E-07
  2798.34741  4.38042844E-05  1.71623469E-07
  2812.09644  4.33744608E-05  1.68210818E-07
  2825.9126  4.29488646E-05  1.64866492E-07
  2839.79688  4.25274411E-05  1.61588545E-07
  2853.74951  4.21101831E-05  1.58376068E-07
  2867.77075  4.16970142E-05  1.55227497E-07
  2881.86035  4.1287909E-05  1.52141851E-07
  2896.01953  4.08828964E-05  1.49117611E-07
  2910.24854  4.04818566E-05  1.46153837E-07
  2924.54712  4.00847639E-05  1.43249025E-07
  2938.91577  3.96915821E-05  1.4040225E-07
  2953.35547  3.93022638E-05  1.37612105E-07
  2967.86597  3.89167653E-05  1.34877652E-07
  2982.44751  3.85350904E-05  1.32197528E-07
  2997.10107  3.8157199E-05  1.29570793E-07
  3011.82642  3.77830147E-05  1.26996028E-07
  3026.62427  3.74125048E-05  1.24467363E-07
  3041.49438  3.70456619E-05  1.21959332E-07
  3056.43799  3.66824024E-05  1.19501991E-07
  3071.45483  3.63227155E-05  1.17094274E-07
  3086.54565  3.59665682E-05  1.14735258E-07
  3101.71021  3.5613928E-05  1.12424246E-07
  3116.94971  3.52647367E-05  1.10159846E-07
  3132.26392  3.49190086E-05  1.07941005E-07
  3147.65332  3.45766857E-05  1.05766652E-07
  3163.11865  3.42377134E-05  1.03636424E-07
  3178.65942  3.39020808E-05  1.01549354E-07
  3194.2771  3.35697514E-05  9.95045824E-08
  3209.97095  3.32406889E-05  9.75010224E-08
  3225.74219  3.29148424E-05  9.55380912E-08
  3241.59082  3.25922447E-05  9.36148865E-08
  3257.51758  3.22727974E-05  9.17305556E-08
  3273.52271  3.19564861E-05  8.98841108E-08
  3289.60596  3.16433034E-05  8.80751401E-08
  3305.76855  3.13331839E-05  8.63026912E-08
  3322.01025  3.1026113E-05  8.45660253E-08
  3338.33228  3.07220653E-05  8.28642186E-08
  3354.73413  3.04210262E-05  8.11968661E-08
  3371.2168  3.01229302E-05  7.95632147E-08
  3387.78003  2.98277737E-05  7.79625893E-08
  3404.4248  2.95355167E-05  7.63941586E-08
  3421.15137  2.92461245E-05  7.48575957E-08
  3437.96045  2.89595646E-05  7.33520551E-08
  3454.85181  2.86758368E-05  7.1876876E-08
  3471.82617  2.83948921E-05  7.04313692E-08
  3488.88379  2.81166995E-05  6.90152291E-08
  3506.02563  2.78412572E-05  6.76276599E-08
  3523.25146  2.75685252E-05  6.62680009E-08
  3540.56177  2.72984726E-05  6.49359819E-08
  3557.95752  2.70310738E-05  6.36308499E-08
  3575.43823  2.67663236E-05  6.23520933E-08
  3593.00488  2.6504169E-05  6.1099179E-08
  3610.6582  2.62445756E-05  5.98714465E-08
  3628.39819  2.59875251E-05  5.86687463E-08
  3646.2251  2.57329975E-05  5.74903112E-08
  3664.13989  2.54809584E-05  5.63355691E-08
  3682.14233  2.52314221E-05  5.52041612E-08
  3700.23364  2.49843324E-05  5.40955973E-08
  3718.41357  2.47396656E-05  5.30094084E-08
  3736.68311  2.44973999E-05  5.19451007E-08
  3755.04224  2.42575188E-05  5.09024005E-08
  3773.49146  2.40199897E-05  4.98807786E-08
  3792.03125  2.37847962E-05  4.88798015E-08
  3810.66235  2.35519274E-05  4.78989506E-08
  3829.38477  2.33213377E-05  4.69380126E-08
  3848.19946  2.30930091E-05  4.59964618E-08
  3867.10645  2.28669323E-05  4.50740032E-08
  3886.10645  2.26430675E-05  4.41700543E-08
  3905.19971  2.24213927E-05  4.32844693E-08
  3924.38672  2.22019062E-05  4.24167332E-08
  3943.66797  2.19845697E-05  4.15665014E-08
  3963.04395  2.17693614E-05  4.07333616E-08
  3982.51514  2.15562686E-05  3.99171221E-08
  4002.08228  2.1345264E-05  3.91173636E-08
  4021.74512  2.11363295E-05  3.83335781E-08
  4041.50464  2.09294449E-05  3.75655489E-08
  4061.36157  2.07245939E-05  3.68130877E-08
  4081.31567  2.05217511E-05  3.6075825E-08
  4101.36816  2.03208911E-05  3.53534446E-08
  4121.51904  2.01220246E-05  3.46398181E-08
  4141.76904  1.99251081E-05  3.39403883E-08
  4162.11816  1.97301215E-05  3.32551977E-08
  4182.56787  1.95370449E-05  3.258398E-08
  4203.11719  1.93458745E-05  3.19263727E-08
  4223.76807  1.91565669E-05  3.12822159E-08
  4244.52051  1.89691109E-05  3.06511758E-08
  4265.37451  1.87834939E-05  3.00329894E-08
  4286.33154  1.85996887E-05  2.94273264E-08
  4307.39111  1.84176879E-05  2.88340534E-08
  4328.55371  1.82374952E-05  2.82528951E-08
  4349.8208  1.80590632E-05  2.76835586E-08
  4371.19238  1.78823757E-05  2.71257505E-08
  4392.66943  1.77074126E-05  2.6579313E-08
  4414.25146  1.75341665E-05  2.60440149E-08
  4435.93945  1.7362614E-05  2.55195953E-08
  4457.73389  1.71927586E-05  2.50058321E-08
  4479.63574  1.7024573E-05  2.45025706E-08
  4501.64551  1.685803E-05  2.40095464E-08
  4523.7627  1.66931204E-05  2.35265674E-08
  4545.98877  1.65298225E-05  2.3053385E-08
  4568.32422  1.63681216E-05  2.25898589E-08
  4590.76953  1.62080014E-05  2.21357812E-08
  4613.32471  1.60494765E-05  2.1690914E-08
  4635.99072  1.58924977E-05  2.12550617E-08
  4658.76855  1.57370541E-05  2.08281143E-08
  4681.6582  1.55831331E-05  2.04098978E-08
  4704.66016  1.54307163E-05  2.00001899E-08
  4727.7749  1.52797911E-05  1.95987848E-08
  4751.00342  1.51303466E-05  1.92055776E-08
  4774.3457  1.49823727E-05  1.88203764E-08
  4797.80322  1.48358449E-05  1.84430071E-08
  4821.37598  1.46907487E-05  1.80732762E-08
  4845.06445  1.45470822E-05  1.77110788E-08
  4868.86914  1.44048208E-05  1.73562551E-08
  4892.79102  1.42639519E-05  1.70086487E-08
  4916.83057  1.41244664E-05  1.66680696E-08
  4940.98779  1.39863523E-05  1.63344644E-08
  4965.26367  1.38495861E-05  1.60076414E-08
  4989.65918  1.37141624E-05  1.56874655E-08
  5014.17432  1.35800674E-05  1.53737503E-08
  5038.81006  1.34472848E-05  1.50664139E-08
  5063.56641  1.33158055E-05  1.47653383E-08
  5088.44482  1.31856132E-05  1.44703796E-08
  5113.4458  1.3056695E-05  1.41813841E-08
  5138.56885  1.29290402E-05  1.38983003E-08
  5163.81592  1.28026304E-05  1.36209817E-08
  5189.18652  1.26774576E-05  1.33493074E-08
  5214.68213  1.25535089E-05  1.30831266E-08
  5240.30322  1.2430779E-05  1.28209239E-08
  5266.0498  1.23092523E-05  1.25637856E-08
  5291.92285  1.21889125E-05  1.23118911E-08
  5317.92334  1.20697541E-05  1.20651737E-08
  5344.05127  1.19517654E-05  1.18235013E-08
  5370.30762  1.18349308E-05  1.15867804E-08
  5396.69287  1.17192403E-05  1.13548921E-08
  5423.20801  1.16046867E-05  1.11277032E-08
  5449.85352  1.14912518E-05  1.0905187E-08
  5476.62939  1.13789301E-05  1.06872244E-08
  5503.5376  1.12677089E-05  1.0473717E-08
  5530.57764  1.11575782E-05  1.02646007E-08
  5557.75049  1.10485225E-05  1.00597557E-08
  5585.05664  1.09405337E-05  9.85909931E-09
  5612.49707  1.08336008E-05  9.66252411E-09
  5640.07227  1.07277128E-05  9.46998924E-09
  5667.7832  1.06228581E-05  9.28138366E-09
  5695.63037  1.05190293E-05  9.09663012E-09
  5723.61426  1.04162145E-05  8.91563179E-09
  5751.73535  1.03144093E-05  8.73835937E-09
  5779.99463  1.02136109E-05  8.56471249E-09
  5808.39307  1.01137985E-05  8.39461389E-09
  5836.93066  1.00149609E-05  8.22797563E-09
  5865.60889  9.91708839E-06  8.0647462E-09
  5894.42822  9.82017173E-06  7.90484656E-09
  5923.38867  9.72420276E-06  7.74821807E-09
  5952.49121  9.62917784E-06  7.59477548E-09
  5981.7373  9.53508243E-06  7.4444868E-09
  6011.12695  9.44190742E-06  7.29725347E-09
  6040.66016  9.34964555E-06  7.1530053E-09
  6070.33936  9.25828135E-06  7.01168545E-09
  6100.16455  9.16781028E-06  6.87326729E-09
  6130.13574  9.07822596E-06  6.73767486E-09
  6160.25391  8.98952294E-06  6.60484778E-09
  6190.521  8.90168303E-06  6.47471898E-09
  6220.93604  8.81470442E-06  6.34725739E-09
  6251.50098  8.72858072E-06  6.22239726E-09
  6282.21582  8.64329922E-06  6.10008222E-09
  6313.08203  8.55885173E-06  5.98024741E-09
  6344.09912  8.47522915E-06  5.86253801E-09
  6375.26904  8.3924233E-06  5.74696246E-09
  6406.59229  8.31042598E-06  5.63375346E-09
  6438.06885  8.22923357E-06  5.52285817E-09
  6469.70068  8.14883606E-06  5.41424461E-09
  6501.4873  8.06922708E-06  5.30785949E-09
  6533.43066  7.99039299E-06  5.20365351E-09
  6565.53076  7.91233106E-06  5.10157072E-09
  6597.78857  7.83503128E-06  5.00158848E-09
  6630.20459  7.75848639E-06  4.90365615E-09
  6662.78027  7.68269456E-06  4.80772844E-09
  6695.51611  7.6076426E-06  4.71375916E-09
  6728.41211  7.53332552E-06  4.62172434E-09
  6761.47021  7.45973375E-06  4.5315689E-09
  6794.69043  7.38686231E-06  4.44325465E-09
  6828.07471  7.31470027E-06  4.35673941E-09
  6861.62256  7.24324445E-06  4.27200186E-09
  6895.33496  7.17249259E-06  4.18900381E-09
  6929.21338  7.10243148E-06  4.10769463E-09
  6963.25732  7.03305477E-06  4.02805567E-09
  6997.46973  6.96435518E-06  3.95004385E-09
  7031.84912  6.89632816E-06  3.87362631E-09
  7066.39893  6.82896325E-06  3.79876308E-09
  7101.1167  6.76226182E-06  3.72543463E-09
  7136.00684  6.69621068E-06  3.65360298E-09
  7171.06689  6.630808E-06  3.58323859E-09
  7206.30029  6.56604198E-06  3.51430751E-09
  7241.70557  6.50191078E-06  3.44679618E-09
  7277.28613  6.4384044E-06  3.38066219E-09
  7313.04053  6.37551921E-06  3.31587868E-09
  7348.97119  6.31324701E-06  3.25241567E-09
  7385.07861  6.25158282E-06  3.19024229E-09
  7421.3623  6.19052298E-06  3.1293439E-09
  7457.8252  6.13006159E-06  3.06968806E-09
  7494.4668  6.07019274E-06  3.01124903E-09
  7531.28906  6.01090733E-06  2.95399616E-09
  7568.29199  5.95220308E-06  2.89791569E-09
  7605.47656  5.89407546E-06  2.8429783E-09
  7642.84326  5.83651581E-06  2.78916179E-09
  7680.39453  5.77951687E-06  2.73643264E-09
  7718.12939  5.7230759E-06  2.68477707E-09
  7756.05078  5.66718427E-06  2.63417399E-09
  7794.15771  5.61184015E-06  2.58459631E-09
  7832.45166  5.55703673E-06  2.53603982E-09
  7870.93457  5.50276718E-06  2.48846965E-09
  7909.60547  5.44902923E-06  2.44186915E-09
  7948.4668  5.39581879E-06  2.39621589E-09
  7987.52002  5.34312721E-06  2.35148634E-09
  8026.76367  5.29095223E-06  2.30763608E-09
  8066.20117  5.2392852E-06  2.26465602E-09
  8105.83203  5.18812385E-06  2.22254304E-09
  8145.65771  5.13746136E-06  2.18128848E-09
  8185.6792  5.08729408E-06  2.14087237E-09
  8225.89648  5.03762112E-06  2.10128026E-09
  8266.3125  4.98843156E-06  2.06248774E-09
  8306.92676  4.93972311E-06  2.0244848E-09
  8347.74023  4.89148988E-06  1.98705696E-09
  8388.75488  4.84372731E-06  1.95036964E-09
  8429.96973  4.79643313E-06  1.9144264E-09
  8471.3877  4.74959961E-06  1.87921922E-09
  8513.00977  4.70322266E-06  1.84472837E-09
  8554.83594  4.65729909E-06  1.81093951E-09
  8596.86719  4.61182572E-06  1.77783466E-09
  8639.10547  4.56679754E-06  1.74540626E-09
  8681.55078  4.52221047E-06  1.71363801E-09
  8724.20605  4.47805633E-06  1.68251402E-09
  8767.06934  4.4343351E-06  1.65201908E-09
  8810.14355  4.39104087E-06  1.62214708E-09
  8853.42969  4.34816866E-06  1.59288027E-09
  8896.92871  4.30571527E-06  1.56420576E-09
  8940.64062  4.26367706E-06  1.53611024E-09
  8984.56836  4.22204766E-06  1.50858637E-09
  9028.71094  4.18082755E-06  1.48162216E-09
  9073.07129  4.14001033E-06  1.45520507E-09
  9117.64844  4.09959284E-06  1.42932088E-09
  9162.44531  4.05956962E-06  1.40396272E-09
  9207.46289  4.01993657E-06  1.37911593E-09
  9252.70117  3.98069051E-06  1.35477118E-09
  9298.16113  3.94182825E-06  1.33091693E-09
  9343.8457  3.90334435E-06  1.30754696E-09
  9389.75293  3.86523789E-06  1.28464916E-09
  9435.88672  3.82750295E-06  1.26221333E-09
  9482.24805  3.79013454E-06  1.24022725E-09
  9528.83594  3.75313289E-06  1.2186876E-09
  9575.65234  3.7164923E-06  1.19758159E-09
  9622.7002  3.6802096E-06  1.17690058E-09
  9669.97852  3.64428342E-06  1.15663401E-09
  9717.48828  3.60870831E-06  1.13677734E-09
  9765.2334  3.57347926E-06  1.11731924E-09
  9813.21191  3.53859491E-06  1.09825227E-09
  9861.42578  3.50405139E-06  1.07956666E-09
  9909.87695  3.46984484E-06  1.0612573E-09
  9958.56641  3.43597458E-06  1.0433151E-09
  10007.4951  3.40243469E-06  1.02571684E-09
  10056.6641  3.3692229E-06  1.0083846E-09
  10106.0742  3.33633352E-06  9.91400295E-10
  10155.7275  3.30376429E-06  9.74755276E-10
  10205.625  3.2715127E-06  9.58440327E-10
  10255.7666  3.23957738E-06  9.42451339E-10
  10306.1553  3.20795471E-06  9.26779486E-10
  10356.792  3.17664058E-06  9.11419051E-10
  10407.6768  3.14563295E-06  8.96363539E-10
  10458.8115  3.11493022E-06  8.81606843E-10
  10510.1973  3.08452741E-06  8.67144079E-10
  10561.8369  3.05442063E-06  8.52967641E-10
  10613.7285  3.02460626E-06  8.39071534E-10
  10665.876  2.99508247E-06  8.25448931E-10
  10718.2803  2.96584631E-06  8.12096779E-10
  10770.9414  2.93689709E-06  7.99008804E-10
  10823.8613  2.90823095E-06  7.86178567E-10
  10877.041  2.8798454E-06  7.73602404E-10
  10930.4814  2.85173701E-06  7.61273378E-10
  10984.1865  2.82390192E-06  7.49184215E-10
  11038.1543  2.796339E-06  7.37331918E-10
  11092.3867  2.76904552E-06  7.25713711E-10
  11146.8848  2.74201898E-06  7.14327264E-10
  11201.6523  2.71525528E-06  7.03164138E-10
  11256.6885  2.68875283E-06  6.9221856E-10
  11311.9941  2.66250936E-06  6.814867E-10
  11367.5723  2.63652214E-06  6.70963951E-10
  11423.4248  2.61078776E-06  6.60646648E-10
  11479.5488  2.58530667E-06  6.50531629E-10
  11535.9512  2.56007388E-06  6.40613174E-10
  11592.6289  2.5350887E-06  6.30889119E-10
  11649.5869  2.51034612E-06  6.21354246E-10
  11706.8242  2.48584365E-06  6.12003781E-10
  11764.3418  2.46158083E-06  6.02835837E-10
  11822.1416  2.43755494E-06  5.93845639E-10
  11880.2266  2.41376461E-06  5.85028526E-10
  11938.5967  2.39020665E-06  5.76381165E-10
  11997.2539  2.36687902E-06  5.67901615E-10
  12056.1973  2.34378058E-06  5.5958721E-10
  12115.4326  2.32090724E-06  5.51433565E-10
  12174.958  2.29825741E-06  5.43436296E-10
  12234.7764  2.27582791E-06  5.35592515E-10
  12294.8887  2.25361646E-06  5.27897337E-10
  12355.2959  2.23162169E-06  5.20349652E-10
  12415.999  2.20984202E-06  5.12944021E-10
  12477.0029  2.18827563E-06  5.05642861E-10
  12538.3047  2.16692024E-06  4.98482033E-10
  12599.9082  2.14577335E-06  4.91458929E-10
  12661.8135  2.12483155E-06  4.84569385E-10
  12724.0234  2.10409371E-06  4.77812179E-10
  12786.5391  2.08355823E-06  4.71184203E-10
  12849.3623  2.0632242E-06  4.64682709E-10
  12912.4941  2.0430889E-06  4.58304533E-10
  12975.9355  2.02315073E-06  4.52048454E-10
  13039.6895  2.00340651E-06  4.45911391E-10
  13103.7559  1.98385533E-06  4.39891568E-10
  13168.1377  1.96449491E-06  4.33985209E-10
  13232.835  1.94532367E-06  4.28191177E-10
  13297.8506  1.92634047E-06  4.2250603E-10
  13363.1855  1.90754281E-06  4.16927992E-10
  13428.8408  1.88892875E-06  4.11454593E-10
  13494.8193  1.87049534E-06  4.06084194E-10
  13561.123  1.85224076E-06  4.00814409E-10
  13627.751  1.834165E-06  3.95643435E-10
  13694.708  1.81626569E-06  3.90568994E-10
  13761.9932  1.79854203E-06  3.85590199E-10
  13829.6074  1.78099185E-06  3.80704218E-10
  13897.5547  1.76361232E-06  3.75908943E-10
  13965.8369  1.74640093E-06  3.71201542E-10
  14034.4531  1.72935802E-06  3.66581765E-10
  14103.4082  1.71248098E-06  3.62047392E-10
  14172.7012  1.69576992E-06  3.57597035E-10
  14242.334  1.67922235E-06  3.53228446E-10
  14312.3096  1.6628361E-06  3.4894046E-10
  14382.6289  1.64660969E-06  3.44730661E-10
  14453.293  1.63054187E-06  3.40597744E-10
  14524.3057  1.61463049E-06  3.36539879E-10
  14595.667  1.59887441E-06  3.3255626E-10
  14667.3779  1.58327236E-06  3.28645333E-10
  14739.4424  1.56782232E-06  3.24805266E-10
  14811.8604  1.55252326E-06  3.21034449E-10
  14884.6338  1.53737449E-06  3.17332161E-10
  14957.7646  1.52237385E-06  3.13696652E-10
  15031.2549  1.5075193E-06  3.10084097E-10
  15105.1074  1.49280845E-06  3.06478315E-10
  15179.3213  1.47824153E-06  3.02936315E-10
  15253.9004  1.46381649E-06  2.99456487E-10
  15328.8457  1.44953276E-06  2.96037944E-10
  15404.1602  1.43538887E-06  2.92678992E-10
  15479.8438  1.4213831E-06  2.8937891E-10
  15555.9004  1.40751354E-06  2.86135948E-10
  15632.3281  1.39377903E-06  2.82948914E-10
  15709.1338  1.38017799E-06  2.79816642E-10
  15786.3164  1.36670985E-06  2.76738549E-10
  15863.877  1.35337416E-06  2.73713469E-10
  15941.8203  1.34016852E-06  2.70740041E-10
  16020.1455  1.32709181E-06  2.67817574E-10
  16098.8555  1.31414288E-06  2.64944816E-10
  16177.9531  1.30132003E-06  2.62120714E-10
  16257.4375  1.28862246E-06  2.59344435E-10
  16337.3135  1.27604903E-06  2.56610927E-10
  16417.584  1.2635976E-06  2.53917387E-10
  16498.2461  1.25126815E-06  2.51269283E-10
  16579.3047  1.23905897E-06  2.4866556E-10
  16660.7637  1.22696861E-06  2.46104997E-10
  16742.6211  1.2149967E-06  2.435874E-10
  16824.8789  1.20314178E-06  2.41111742E-10
  16907.5449  1.1914027E-06  2.38677411E-10
  16990.6133  1.17977856E-06  2.36283715E-10
  17074.0918  1.16826777E-06  2.33929515E-10
  17157.9805  1.15686885E-06  2.31613728E-10
  17242.2812  1.14558065E-06  2.29335495E-10
  17326.9961  1.13440274E-06  2.27094676E-10
  17412.1289  1.12333373E-06  2.24890231E-10
  17497.6758  1.11237398E-06  2.22721674E-10
  17583.6465  1.10152075E-06  2.20587978E-10
  17670.0391  1.09077337E-06  2.18488644E-10
  17756.8555  1.08013023E-06  2.16423185E-10
  17844.0977  1.06959101E-06  2.14390616E-10
  17931.7695  1.05915444E-06  2.12390355E-10
  18019.873  1.0488202E-06  2.10421666E-10
  18108.4082  1.03858724E-06  2.08484022E-10
  18197.377  1.02845411E-06  2.06576825E-10
  18286.7852  1.01841977E-06  2.04699493E-10
  18376.6328  1.00848308E-06  2.02851652E-10
  18466.9199  9.98643714E-07  2.01032524E-10
  18557.6523  9.88900183E-07  1.99241554E-10
  18648.8301  9.79251695E-07  1.97478089E-10
  18740.4551  9.69697453E-07  1.95741839E-10
  18832.5312  9.60236321E-07  1.94032082E-10
  18925.0586  9.50867673E-07  1.92348082E-10
  19018.041  9.41590315E-07  1.90689478E-10
  19111.4805  9.32403452E-07  1.89056049E-10
  19205.3789  9.23306288E-07  1.87447224E-10
  19299.7402  9.14297686E-07  1.85862478E-10
  19394.5625  9.05377306E-07  1.8430131E-10
  19489.8516  8.96543838E-07  1.82763318E-10
  19585.6094  8.87796546E-07  1.81247933E-10
  19681.8379  8.79134518E-07  1.79754767E-10
  19778.5391  8.70557074E-07  1.78283388E-10
  19875.7148  8.62063246E-07  1.76833548E-10
  19973.3691  8.53652239E-07  1.75404677E-10
  20071.502  8.45323427E-07  1.73945219E-10
  20170.1172  8.37075845E-07  1.72487302E-10
  20269.2168  8.28908753E-07  1.71049855E-10
  20368.8047  8.20821185E-07  1.69632489E-10
  20468.8809  8.12813028E-07  1.68234857E-10
  20569.4473  8.04883371E-07  1.6685657E-10
  20670.5098  7.9703085E-07  1.65497269E-10
  20772.0684  7.89254841E-07  1.64156438E-10
  20874.127  7.81554206E-07  1.62833622E-10
  20976.6855  7.73928832E-07  1.6152879E-10
  21079.748  7.66377866E-07  1.60241556E-10
  21183.3164  7.58901137E-07  1.58971794E-10
  21287.3926  7.51497453E-07  1.57719005E-10
  21391.9844  7.44165618E-07  1.56482716E-10
  21497.0859  7.36905292E-07  1.55262803E-10
  21602.7051  7.29715509E-07  1.54058905E-10
  21708.8457  7.22595757E-07  1.52870647E-10
  21815.5059  7.15545866E-07  1.5169789E-10
  21922.6895  7.08564983E-07  1.50540275E-10
  22030.3984  7.01652425E-07  1.49397578E-10
  22138.6387  6.94807113E-07  1.48269466E-10
  22247.4121  6.88028422E-07  1.4715569E-10
  22356.7188  6.81316067E-07  1.46056084E-10
  22466.5605  6.74669195E-07  1.44970327E-10
  22576.9414  6.68087239E-07  1.43898268E-10
  22687.8672  6.61569345E-07  1.4283949E-10
  22799.3379  6.55115059E-07  1.41793868E-10
  22911.3574  6.48723358E-07  1.40761111E-10
  23023.9238  6.4239407E-07  1.39740955E-10
